Time(min)	BIS	InfusionRate(mg/min)	Q1	Q2	Q3	Ce	Kp	Ki	Kd	
0.000000	92.982400	86.050765	0.000000	0.000000	0.000000	0.000000	2.000000	0.200000	0.100000
0.010000	92.982400	86.050765	0.857344	0.001176	0.000762	0.000100	2.000000	0.200000	0.100000
0.020000	92.982400	86.136726	1.709264	0.004687	0.003039	0.000399	2.000000	0.200000	0.100000
0.030000	92.982396	86.222646	2.555801	0.010516	0.006821	0.000896	2.000000	0.200000	0.100000
0.040000	92.982380	86.308464	3.396997	0.018647	0.012097	0.001588	2.000000	0.200000	0.100000
0.050000	92.982341	86.394119	4.232889	0.029063	0.018860	0.002474	2.000000	0.200000	0.100000
0.060000	92.982264	86.479546	5.063517	0.041748	0.027098	0.003553	2.000000	0.200000	0.100000
0.070000	92.982131	86.564678	5.888917	0.056688	0.036804	0.004823	2.000000	0.200000	0.100000
0.080000	92.981920	86.649445	6.709126	0.073864	0.047967	0.006282	2.000000	0.200000	0.100000
0.090000	92.981607	86.733772	7.524179	0.093263	0.060578	0.007930	2.000000	0.200000	0.100000
0.100000	92.981168	86.817583	8.334111	0.114868	0.074628	0.009765	2.000000	0.200000	0.100000
0.110000	92.980573	86.900797	9.138955	0.138663	0.090109	0.011785	2.000000	0.200000	0.100000
0.120000	92.979791	86.983330	9.938743	0.164633	0.107011	0.013988	2.000000	0.200000	0.100000
0.130000	92.978791	87.065095	10.733506	0.192764	0.125324	0.016375	2.000000	0.200000	0.100000
0.140000	92.977536	87.146005	11.523274	0.223038	0.145041	0.018942	2.000000	0.200000	0.100000
0.150000	92.975992	87.225965	12.308075	0.255443	0.166152	0.021688	2.000000	0.200000	0.100000
0.160000	92.974119	87.304881	13.087938	0.289961	0.188649	0.024613	2.000000	0.200000	0.100000
0.170000	92.971877	87.382656	13.862888	0.326579	0.212522	0.027714	2.000000	0.200000	0.100000
0.180000	92.969225	87.459191	14.632951	0.365281	0.237763	0.030991	2.000000	0.200000	0.100000
0.190000	92.966120	87.534383	15.398151	0.406052	0.264363	0.034441	2.000000	0.200000	0.100000
0.200000	92.962518	87.608129	16.158510	0.448879	0.292314	0.038064	2.000000	0.200000	0.100000
0.210000	92.958373	87.680322	16.914051	0.493745	0.321607	0.041858	2.000000	0.200000	0.100000
0.220000	92.953637	87.750854	17.664793	0.540637	0.352233	0.045822	2.000000	0.200000	0.100000
0.230000	92.948262	87.819616	18.410755	0.589540	0.384184	0.049955	2.000000	0.200000	0.100000
0.240000	92.942200	87.886498	19.151956	0.640439	0.417451	0.054254	2.000000	0.200000	0.100000
0.250000	92.935400	87.951385	19.888412	0.693320	0.452026	0.058719	2.000000	0.200000	0.100000
0.260000	92.927809	88.014164	20.620137	0.748168	0.487900	0.063348	2.000000	0.200000	0.100000
0.270000	92.919377	88.074720	21.347147	0.804970	0.525065	0.068141	2.000000	0.200000	0.100000
0.280000	92.910050	88.132936	22.069453	0.863711	0.563513	0.073095	2.000000	0.200000	0.100000
0.290000	92.899774	88.188694	22.787067	0.924376	0.603235	0.078210	2.000000	0.200000	0.100000
0.300000	92.888495	88.241877	23.500000	0.986952	0.644223	0.083483	2.000000	0.200000	0.100000
0.310000	92.876157	88.292364	24.208260	1.051424	0.686468	0.088914	2.000000	0.200000	0.100000
0.320000	92.862704	88.340037	24.911855	1.117778	0.729962	0.094502	2.000000	0.200000	0.100000
0.330000	92.848080	88.384774	25.610790	1.186000	0.774698	0.100245	2.000000	0.200000	0.100000
0.340000	92.832228	88.426455	26.305073	1.256076	0.820666	0.106141	2.000000	0.200000	0.100000
0.350000	92.815090	88.464958	26.994705	1.327992	0.867858	0.112190	2.000000	0.200000	0.100000
0.360000	92.796610	88.500162	27.679689	1.401734	0.916266	0.118390	2.000000	0.200000	0.100000
0.370000	92.776729	88.531947	28.360028	1.477288	0.965881	0.124740	2.000000	0.200000	0.100000
0.380000	92.755389	88.560189	29.035721	1.554639	1.016697	0.131238	2.000000	0.200000	0.100000
0.390000	92.732533	88.584769	29.706767	1.633774	1.068703	0.137884	2.000000	0.200000	0.100000
0.400000	92.708100	88.605566	30.373163	1.714679	1.121892	0.144675	2.000000	0.200000	0.100000
0.410000	92.682034	88.622458	31.034907	1.797340	1.176255	0.151612	2.000000	0.200000	0.100000
0.420000	92.654275	88.635326	31.691993	1.881743	1.231785	0.158691	2.000000	0.200000	0.100000
0.430000	92.624766	88.644052	32.344416	1.967873	1.288473	0.165913	2.000000	0.200000	0.100000
0.440000	92.593448	88.648516	32.992168	2.055717	1.346310	0.173275	2.000000	0.200000	0.100000
0.450000	92.560264	88.648601	33.635242	2.145261	1.405289	0.180777	2.000000	0.200000	0.100000
0.460000	92.525155	88.644190	34.273629	2.236491	1.465401	0.188417	2.000000	0.200000	0.100000
0.470000	92.488064	88.635169	34.907317	2.329392	1.526637	0.196194	2.000000	0.200000	0.100000
0.480000	92.448935	88.621423	35.536296	2.423951	1.588989	0.204107	2.000000	0.200000	0.100000
0.490000	92.407711	88.602841	36.160553	2.520154	1.652450	0.212154	2.000000	0.200000	0.100000
0.500000	92.364336	88.579310	36.780074	2.617985	1.717009	0.220334	2.000000	0.200000	0.100000
0.510000	92.318755	88.550722	37.394846	2.717432	1.782660	0.228645	2.000000	0.200000	0.100000
0.520000	92.270913	88.516970	38.004853	2.818481	1.849393	0.237087	2.000000	0.200000	0.100000
0.530000	92.220756	88.477947	38.610077	2.921116	1.917200	0.245658	2.000000	0.200000	0.100000
0.540000	92.168230	88.433551	39.210503	3.025323	1.986072	0.254357	2.000000	0.200000	0.100000
0.550000	92.113284	88.383679	39.806112	3.131089	2.056001	0.263183	2.000000	0.200000	0.100000
0.560000	92.055866	88.328234	40.396885	3.238399	2.126979	0.272133	2.000000	0.200000	0.100000
0.570000	91.995925	88.267118	40.982801	3.347238	2.198996	0.281207	2.000000	0.200000	0.100000
0.580000	91.933412	88.200237	41.563840	3.457593	2.272044	0.290404	2.000000	0.200000	0.100000
0.590000	91.868279	88.127500	42.139982	3.569448	2.346114	0.299723	2.000000	0.200000	0.100000
0.600000	91.800477	88.048819	42.711202	3.682790	2.421198	0.309161	2.000000	0.200000	0.100000
0.610000	91.729962	87.964107	43.277479	3.797604	2.497286	0.318717	2.000000	0.200000	0.100000
0.620000	91.656687	87.873281	43.838790	3.913874	2.574371	0.328391	2.000000	0.200000	0.100000
0.630000	91.580610	87.776263	44.395108	4.031587	2.652442	0.338181	2.000000	0.200000	0.100000
0.640000	91.501688	87.672975	44.946411	4.150727	2.731492	0.348086	2.000000	0.200000	0.100000
0.650000	91.419881	87.563344	45.492673	4.271281	2.811511	0.358103	2.000000	0.200000	0.100000
0.660000	91.335149	87.447301	46.033867	4.393232	2.892490	0.368233	2.000000	0.200000	0.100000
0.670000	91.247454	87.324779	46.569967	4.516567	2.974420	0.378473	2.000000	0.200000	0.100000
0.680000	91.156760	87.195715	47.100947	4.641270	3.057292	0.388823	2.000000	0.200000	0.100000
0.690000	91.063032	87.060050	47.626779	4.767326	3.141097	0.399280	2.000000	0.200000	0.100000
0.700000	90.966238	86.917729	48.147435	4.894720	3.225826	0.409844	2.000000	0.200000	0.100000
0.710000	90.866346	86.768701	48.662889	5.023437	3.311470	0.420513	2.000000	0.200000	0.100000
0.720000	90.763327	86.612917	49.173111	5.153462	3.398019	0.431285	2.000000	0.200000	0.100000
0.730000	90.657153	86.450334	49.678073	5.284779	3.485463	0.442160	2.000000	0.200000	0.100000
0.740000	90.547799	86.280914	50.177746	5.417373	3.573794	0.453137	2.000000	0.200000	0.100000
0.750000	90.435239	86.104619	50.672103	5.551229	3.663002	0.464212	2.000000	0.200000	0.100000
0.760000	90.319453	85.921420	51.161113	5.686331	3.753078	0.475386	2.000000	0.200000	0.100000
0.770000	90.200421	85.731288	51.644748	5.822664	3.844012	0.486657	2.000000	0.200000	0.100000
0.780000	90.078123	85.534202	52.122979	5.960211	3.935794	0.498024	2.000000	0.200000	0.100000
0.790000	89.952545	85.330142	52.595777	6.098958	4.028416	0.509484	2.000000	0.200000	0.100000
0.800000	89.823672	85.119095	53.063113	6.238889	4.121866	0.521037	2.000000	0.200000	0.100000
0.810000	89.691492	84.901051	53.524958	6.379987	4.216136	0.532682	2.000000	0.200000	0.100000
0.820000	89.555996	84.676004	53.981284	6.522236	4.311215	0.544416	2.000000	0.200000	0.100000
0.830000	89.417175	84.443953	54.432061	6.665622	4.407094	0.556239	2.000000	0.200000	0.100000
0.840000	89.275024	84.204903	54.877263	6.810128	4.503763	0.568148	2.000000	0.200000	0.100000
0.850000	89.129540	83.958861	55.316860	6.955737	4.601212	0.580143	2.000000	0.200000	0.100000
0.860000	88.980722	83.705838	55.750826	7.102434	4.699431	0.592223	2.000000	0.200000	0.100000
0.870000	88.828569	83.445853	56.179132	7.250202	4.798410	0.604385	2.000000	0.200000	0.100000
0.880000	88.673086	83.178927	56.601753	7.399025	4.898139	0.616628	2.000000	0.200000	0.100000
0.890000	88.514278	82.905084	57.018661	7.548887	4.998607	0.628951	2.000000	0.200000	0.100000
0.900000	88.352151	82.624355	57.429831	7.699771	5.099806	0.641352	2.000000	0.200000	0.100000
0.910000	88.186716	82.336775	57.835237	7.851661	5.201723	0.653831	2.000000	0.200000	0.100000
0.920000	88.017985	82.042381	58.234854	8.004541	5.304349	0.666384	2.000000	0.200000	0.100000
0.930000	87.845970	81.741218	58.628658	8.158393	5.407675	0.679012	2.000000	0.200000	0.100000
0.940000	87.670690	81.433332	59.016625	8.313201	5.511688	0.691712	2.000000	0.200000	0.100000
0.950000	87.492160	81.118774	59.398732	8.468949	5.616380	0.704484	2.000000	0.200000	0.100000
0.960000	87.310403	80.797600	59.774958	8.625619	5.721739	0.717325	2.000000	0.200000	0.100000
0.970000	87.125440	80.469870	60.145280	8.783196	5.827756	0.730234	2.000000	0.200000	0.100000
0.980000	86.937297	80.135646	60.509678	8.941661	5.934419	0.743209	2.000000	0.200000	0.100000
0.990000	86.745998	79.794997	60.868131	9.100999	6.041718	0.756250	2.000000	0.200000	0.100000
1.000000	86.551574	79.447994	61.220621	9.261193	6.149642	0.769354	2.000000	0.200000	0.100000
1.010000	86.354055	79.094712	61.567130	9.422224	6.258182	0.782521	2.000000	0.200000	0.100000
1.020000	86.153473	78.735229	61.907640	9.584077	6.367325	0.795748	2.000000	0.200000	0.100000
1.030000	85.949863	78.369628	62.242134	9.746735	6.477063	0.809035	2.000000	0.200000	0.100000
1.040000	85.743262	77.997994	62.570598	9.910180	6.587383	0.822379	2.000000	0.200000	0.100000
1.050000	85.533706	77.620417	62.893016	10.074395	6.698275	0.835780	2.000000	0.200000	0.100000
1.060000	85.321238	77.236988	63.209376	10.239363	6.809729	0.849235	2.000000	0.200000	0.100000
1.070000	85.105898	76.847804	63.519665	10.405068	6.921733	0.862744	2.000000	0.200000	0.100000
1.080000	84.887730	76.452963	63.823872	10.571492	7.034277	0.876304	2.000000	0.200000	0.100000
1.090000	84.666779	76.052566	64.121986	10.738617	7.147350	0.889915	2.000000	0.200000	0.100000
1.100000	84.443092	75.646718	64.413999	10.906427	7.260942	0.903574	2.000000	0.200000	0.100000
1.110000	84.216717	75.235525	64.699901	11.074904	7.375041	0.917281	2.000000	0.200000	0.100000
1.120000	83.987704	74.819098	64.979688	11.244032	7.489636	0.931033	2.000000	0.200000	0.100000
1.130000	83.756106	74.397547	65.253351	11.413792	7.604717	0.944830	2.000000	0.200000	0.100000
1.140000	83.521973	73.970989	65.520888	11.584169	7.720273	0.958669	2.000000	0.200000	0.100000
1.150000	83.285360	73.539538	65.782295	11.755144	7.836293	0.972550	2.000000	0.200000	0.100000
1.160000	83.046324	73.103313	66.037569	11.926700	7.952765	0.986471	2.000000	0.200000	0.100000
1.170000	82.804919	72.662435	66.286709	12.098821	8.069680	1.000430	2.000000	0.200000	0.100000
1.180000	82.561204	72.217027	66.529716	12.271489	8.187026	1.014426	2.000000	0.200000	0.100000
1.190000	82.315238	71.767211	66.766592	12.444687	8.304793	1.028457	2.000000	0.200000	0.100000
1.200000	82.067081	71.313114	66.997338	12.618398	8.422969	1.042522	2.000000	0.200000	0.100000
1.210000	81.816792	70.854862	67.221959	12.792604	8.541543	1.056620	2.000000	0.200000	0.100000
1.220000	81.564434	70.392584	67.440459	12.967289	8.660505	1.070748	2.000000	0.200000	0.100000
1.230000	81.310070	69.926407	67.652846	13.142436	8.779845	1.084906	2.000000	0.200000	0.100000
1.240000	81.053762	69.456464	67.859127	13.318027	8.899550	1.099092	2.000000	0.200000	0.100000
1.250000	80.795574	68.982884	68.059310	13.494046	9.019610	1.113305	2.000000	0.200000	0.100000
1.260000	80.535572	68.505800	68.253406	13.670475	9.140015	1.127543	2.000000	0.200000	0.100000
1.270000	80.273819	68.025343	68.441427	13.847298	9.260754	1.141804	2.000000	0.200000	0.100000
1.280000	80.010382	67.541648	68.623383	14.024497	9.381815	1.156088	2.000000	0.200000	0.100000
1.290000	79.745327	67.054846	68.799290	14.202057	9.503188	1.170392	2.000000	0.200000	0.100000
1.300000	79.478721	66.565072	68.969163	14.379959	9.624863	1.184716	2.000000	0.200000	0.100000
1.310000	79.210629	66.072458	69.133017	14.558188	9.746829	1.199057	2.000000	0.200000	0.100000
1.320000	78.941119	65.577140	69.290869	14.736727	9.869074	1.213415	2.000000	0.200000	0.100000
1.330000	78.670258	65.079249	69.442739	14.915559	9.991589	1.227788	2.000000	0.200000	0.100000
1.340000	78.398113	64.578919	69.588647	15.094668	10.114363	1.242175	2.000000	0.200000	0.100000
1.350000	78.124752	64.076284	69.728612	15.274036	10.237385	1.256574	2.000000	0.200000	0.100000
1.360000	77.850242	63.571474	69.862658	15.453649	10.360645	1.270984	2.000000	0.200000	0.100000
1.370000	77.574651	63.064624	69.990807	15.633489	10.484132	1.285403	2.000000	0.200000	0.100000
1.380000	77.298044	62.555862	70.113084	15.813540	10.607835	1.299830	2.000000	0.200000	0.100000
1.390000	77.020491	62.045320	70.229514	15.993787	10.731746	1.314264	2.000000	0.200000	0.100000
1.400000	76.742056	61.533128	70.340124	16.174212	10.855852	1.328703	2.000000	0.200000	0.100000
1.410000	76.462808	61.019414	70.444941	16.354800	10.980144	1.343147	2.000000	0.200000	0.100000
1.420000	76.182811	60.504305	70.543994	16.535535	11.104612	1.357592	2.000000	0.200000	0.100000
1.430000	75.902132	59.987929	70.637313	16.716402	11.229245	1.372039	2.000000	0.200000	0.100000
1.440000	75.620836	59.470410	70.724929	16.897384	11.354033	1.386486	2.000000	0.200000	0.100000
1.450000	75.338988	58.951872	70.806872	17.078466	11.478966	1.400932	2.000000	0.200000	0.100000
1.460000	75.056653	58.432438	70.883177	17.259632	11.604035	1.415375	2.000000	0.200000	0.100000
1.470000	74.773893	57.912229	70.953876	17.440867	11.729228	1.429814	2.000000	0.200000	0.100000
1.480000	74.490773	57.391365	71.019004	17.622156	11.854537	1.444247	2.000000	0.200000	0.100000
1.490000	74.207355	56.869964	71.078596	17.803483	11.979951	1.458674	2.000000	0.200000	0.100000
1.500000	73.923701	56.348143	71.132690	17.984834	12.105461	1.473093	2.000000	0.200000	0.100000
1.510000	73.639873	55.826016	71.181322	18.166193	12.231056	1.487503	2.000000	0.200000	0.100000
1.520000	73.355929	55.303696	71.224531	18.347545	12.356728	1.501903	2.000000	0.200000	0.100000
1.530000	73.071931	54.781296	71.262354	18.528876	12.482466	1.516291	2.000000	0.200000	0.100000
1.540000	72.787937	54.258924	71.294833	18.710171	12.608262	1.530666	2.000000	0.200000	0.100000
1.550000	72.504005	53.736689	71.322007	18.891415	12.734105	1.545027	2.000000	0.200000	0.100000
1.560000	72.220192	53.214696	71.343918	19.072594	12.859987	1.559372	2.000000	0.200000	0.100000
1.570000	71.936555	52.693048	71.360608	19.253695	12.985898	1.573701	2.000000	0.200000	0.100000
1.580000	71.653148	52.171849	71.372119	19.434702	13.111828	1.588013	2.000000	0.200000	0.100000
1.590000	71.370027	51.651197	71.378495	19.615601	13.237769	1.602306	2.000000	0.200000	0.100000
1.600000	71.087244	51.131192	71.379780	19.796380	13.363712	1.616578	2.000000	0.200000	0.100000
1.610000	70.804852	50.611928	71.376018	19.977023	13.489647	1.630830	2.000000	0.200000	0.100000
1.620000	70.522903	50.093499	71.367254	20.157517	13.615567	1.645059	2.000000	0.200000	0.100000
1.630000	70.241446	49.575998	71.353535	20.337850	13.741461	1.659265	2.000000	0.200000	0.100000
1.640000	69.960532	49.059514	71.334906	20.518007	13.867321	1.673446	2.000000	0.200000	0.100000
1.650000	69.680208	48.544134	71.311415	20.697975	13.993139	1.687601	2.000000	0.200000	0.100000
1.660000	69.400523	48.029944	71.283108	20.877741	14.118906	1.701730	2.000000	0.200000	0.100000
1.670000	69.121521	47.517028	71.250034	21.057293	14.244613	1.715831	2.000000	0.200000	0.100000
1.680000	68.843250	47.005466	71.212241	21.236617	14.370252	1.729903	2.000000	0.200000	0.100000
1.690000	68.565752	46.495337	71.169777	21.415701	14.495815	1.743945	2.000000	0.200000	0.100000
1.700000	68.289070	45.986720	71.122692	21.594532	14.621294	1.757957	2.000000	0.200000	0.100000
1.710000	68.013247	45.479687	71.071035	21.773098	14.746680	1.771936	2.000000	0.200000	0.100000
1.720000	67.738324	44.974314	71.014856	21.951386	14.871965	1.785882	2.000000	0.200000	0.100000
1.730000	67.464341	44.470669	70.954205	22.129386	14.997142	1.799794	2.000000	0.200000	0.100000
1.740000	67.191335	43.968821	70.889132	22.307083	15.122202	1.813672	2.000000	0.200000	0.100000
1.750000	66.919345	43.468838	70.819689	22.484468	15.247138	1.827513	2.000000	0.200000	0.100000
1.760000	66.648408	42.970784	70.745926	22.661527	15.371942	1.841317	2.000000	0.200000	0.100000
1.770000	66.378558	42.474720	70.667895	22.838251	15.496606	1.855084	2.000000	0.200000	0.100000
1.780000	66.109831	41.980708	70.585646	23.014626	15.621123	1.868811	2.000000	0.200000	0.100000
1.790000	65.842259	41.488806	70.499232	23.190643	15.745486	1.882499	2.000000	0.200000	0.100000
1.800000	65.575875	40.999070	70.408705	23.366290	15.869687	1.896147	2.000000	0.200000	0.100000
1.810000	65.310711	40.511555	70.314115	23.541556	15.993719	1.909753	2.000000	0.200000	0.100000
1.820000	65.046796	40.026312	70.215517	23.716430	16.117574	1.923316	2.000000	0.200000	0.100000
1.830000	64.784159	39.543394	70.112961	23.890903	16.241246	1.936836	2.000000	0.200000	0.100000
1.840000	64.522830	39.062848	70.006500	24.064962	16.364728	1.950313	2.000000	0.200000	0.100000
1.850000	64.262834	38.584721	69.896187	24.238599	16.488013	1.963744	2.000000	0.200000	0.100000
1.860000	64.004198	38.109058	69.782074	24.411802	16.611094	1.977129	2.000000	0.200000	0.100000
1.870000	63.746947	37.635902	69.664213	24.584563	16.733964	1.990468	2.000000	0.200000	0.100000
1.880000	63.491106	37.165294	69.542658	24.756870	16.856617	2.003760	2.000000	0.200000	0.100000
1.890000	63.236697	36.697275	69.417459	24.928715	16.979047	2.017003	2.000000	0.200000	0.100000
1.900000	62.983743	36.231882	69.288671	25.100088	17.101246	2.030197	2.000000	0.200000	0.100000
1.910000	62.732265	35.769151	69.156345	25.270979	17.223210	2.043342	2.000000	0.200000	0.100000
1.920000	62.482284	35.309116	69.020535	25.441380	17.344930	2.056436	2.000000	0.200000	0.100000
1.930000	62.233818	34.851811	68.881291	25.611280	17.466402	2.069479	2.000000	0.200000	0.100000
1.940000	61.986886	34.397266	68.738667	25.780672	17.587619	2.082470	2.000000	0.200000	0.100000
1.950000	61.741507	33.945512	68.592715	25.949546	17.708576	2.095409	2.000000	0.200000	0.100000
1.960000	61.497697	33.496575	68.443486	26.117894	17.829266	2.108294	2.000000	0.200000	0.100000
1.970000	61.255471	33.050484	68.291033	26.285707	17.949684	2.121126	2.000000	0.200000	0.100000
1.980000	61.014846	32.607263	68.135408	26.452976	18.069824	2.133902	2.000000	0.200000	0.100000
1.990000	60.775835	32.166935	67.976662	26.619695	18.189681	2.146624	2.000000	0.200000	0.100000
2.000000	60.538451	31.729523	67.814846	26.785854	18.309248	2.159289	2.000000	0.200000	0.100000
2.010000	60.302708	31.295047	67.650013	26.951446	18.428522	2.171898	2.000000	0.200000	0.100000
2.020000	60.068618	30.863527	67.482213	27.116463	18.547496	2.184450	2.000000	0.200000	0.100000
2.030000	59.836191	30.434982	67.311497	27.280897	18.666165	2.196944	2.000000	0.200000	0.100000
2.040000	59.605438	30.009428	67.137916	27.444740	18.784524	2.209380	2.000000	0.200000	0.100000
2.050000	59.376369	29.586880	66.961520	27.607987	18.902568	2.221757	2.000000	0.200000	0.100000
2.060000	59.148993	29.167354	66.782360	27.770628	19.020292	2.234074	2.000000	0.200000	0.100000
2.070000	58.923318	28.750862	66.600486	27.932658	19.137692	2.246331	2.000000	0.200000	0.100000
2.080000	58.699351	28.337415	66.415947	28.094070	19.254762	2.258528	2.000000	0.200000	0.100000
2.090000	58.477101	27.927027	66.228793	28.254856	19.371498	2.270663	2.000000	0.200000	0.100000
2.100000	58.256572	27.519704	66.039073	28.415010	19.487896	2.282737	2.000000	0.200000	0.100000
2.110000	58.037772	27.115458	65.846836	28.574525	19.603950	2.294749	2.000000	0.200000	0.100000
